Time,X_Pos,Altitude,Velocity,Pitch,Roll
0.0,0.0,1000.0,60.0,0.0,0.0
0.05004170141784821,3.005638306261055,1000.0047766281111,60.12500444630655,0.004483180709142847,0.0
0.10008340283569642,6.017394440959628,1000.0206158054041,60.24200898813808,0.01790077263656277,0.0
0.15012510425354464,9.03480910350936,1000.0531460016001,60.33552390799171,0.04006667470358678,0.0
0.20016680567139283,12.057163964882168,1000.1115564278184,60.385638066809875,0.07064605229500276,0.0
0.25020850708924103,15.082370955056364,1000.2091338203923,60.37110068117882,0.10913467699044983,0.0
0.3002502085070893,18.10741197212605,1000.3604614522582,60.27460045615057,0.15495908610048442,0.0
0.3502919099249375,21.128537518240886,1000.5808129563449,60.083673187375574,0.20749858161743862,0.0
0.40033361134278567,24.14217249654741,1000.885615893621,59.79134274489842,0.2661262805786914,0.0
0.45037531276063386,27.139867152096315,1001.2912304550508,59.39424096474693,0.3301164702374673,0.0
0.5004170141784821,30.10885977228446,1001.813351258744,58.89186321977518,0.3986779018698797,0.0
0.5504587155963303,33.03653134138762,1002.4649400983977,58.28839873332097,0.4710911304289921,0.0
0.6005004170141786,35.91042660362007,1003.2562166570217,57.59274087069476,0.5467092006416536,0.0
0.6505421184320267,38.718254063134495,1004.1946585069383,56.81848713917971,0.6249576470084983,0.0
0.700583819849875,41.44785591692435,1005.2850000015101,55.98378540343173,0.7053334963478813,0.0
0.7506255212677231,44.083714725723276,1006.5289820381535,55.098872580364265,0.7873129915349364,0.0
0.8006672226855713,46.60699905611081,1007.9251086589554,54.171430079548124,0.8703744042824513,0.0
0.8507089241034196,49.001042937982,1009.4691565816632,53.21247372068158,0.9540815600800479,0.0
0.9007506255212677,51.2512445480289,1011.1542414975264,52.231782096225835,1.0380625987645415,0.0
0.950792326939116,53.34506620974055,1012.9708180712953,51.237896571405045,1.122009974519941,0.0
1.0008340283569641,55.272034393403004,1014.9066799412225,50.23812128420631,1.2056804558774479,0.0
1.0508757297748124,57.02373971609929,1016.9469597190616,49.238523145379645,1.2888951257154568,0.0
1.1009174311926606,58.593826390770005,1019.0741454967678,48.243942002184234,1.3715388162028264,0.0
1.1509591326105089,59.97618508257074,1021.2722071072285,47.25985404488071,1.4534460383967747,0.0
1.2010008340283571,61.16747105457959,1023.5265243498056,46.29039186228762,1.5344883574322896,0.0
1.2510425354462051,62.167272318581276,1025.821245876318,45.338085843396236,1.614621359106587,0.0
1.3010842368640534,62.976503592964626,1028.1409934186233,44.40535088635171,1.6938101816394298,0.0
1.3511259382819016,63.59740630272263,1030.4708617886188,43.49448639845309,1.7720295156731263,0.0
1.40116763969975,64.03354857945244,1032.79641887824,42.607676296153336,1.8492636042725301,0.0
1.4512093411175981,64.28982526135536,1035.1037056594619,41.74698900505929,1.9255062429250422,0.0
1.5012510425354462,64.37245789323681,1037.3792361842984,40.914377459931686,2.0007607795406095,0.0
1.5512927439532944,64.28899472650642,1039.6099975848026,40.11167910468517,2.075040114451724,0.0
1.6013344453711427,64.04788988491308,1041.7836104437706,39.340733154798755,2.148358928604643,0.0
1.651376146788991,63.65646458763616,1043.890633194971,38.60315439500831,2.220720403618018,0.0
1.7014178482068392,63.123627481592614,1045.9240072054306,37.89908010829334,2.2921850185060033,0.0
1.7514595496246872,62.45846287323726,1047.8772733524058,37.22856403824661,2.362816621641225,0.0
1.8015012510425354,61.66992174166523,1049.7445341705643,36.591734814949874,2.4326746234544068,0.0
1.8515429524603837,60.766821738611974,1051.5204538519836,35.98879595497383,2.501813996434361,0.0
1.901584653878232,59.75784718845328,1053.2002582461523,35.42002586137814,2.570285275127996,0.0
1.9516263552960802,58.65154908820527,1054.7797348599693,34.88577782371145,2.6381345561403124,0.0
2.0016680567139282,57.456345107524385,1056.2552328577444,34.38648001801134,2.7054034981344035,0.0
2.0517097581317767,56.18051958870737,1057.6236630611972,33.922635506804355,2.7721293218314567,0.0
2.1017514595496247,54.83222354669133,1058.882497949459,33.49482223910603,2.8383448100107516,0.0
2.1517931609674728,53.419474669053685,1060.0297716590708,33.103693050420816,2.904078307509661,0.0
2.2018348623853212,51.95015731601216,1061.0640799839844,32.74997566274217,2.9693537212236527,0.0
2.2518765638031693,50.43202252042486,1061.984580375562,32.434472684552496,3.0341905201062844,0.0
2.3019182652210177,48.87244730258325,1062.7910808493266,32.157475999331886,3.0986193940327387,0.0
2.3519599666388658,47.27735946028566,1063.4840144312172,31.916700074903865,3.162726664785362,0.0
2.4020016680567142,45.65285308649591,1064.063484684658,31.711281202736636,3.226543583089197,0.0
2.4520433694745623,44.00500516856225,1064.5296995633423,31.540547395480065,3.2900928275337322,0.0
2.5020850708924103,42.33978377778335,1064.883029566944,31.403752951533203,3.3533963684903276,0.0
2.5521267723102588,40.66304806940838,1065.1240077411178,31.3000784550443,3.416475468112213,0.0
2.602168473728107,38.98054828263702,1065.253329677499,31.228630775910798,3.4793506803344885,0.0
2.6522101751459553,37.29792574061934,1065.2718535137037,31.18844306977932,3.542041850874125,0.0
2.7022518765638033,35.62071285045597,1065.1805999333283,31.178474778045704,3.604568117229963,0.0
2.7522935779816513,33.954333103197975,1064.9807521659504,31.197611627854958,3.6669479086827144,0.0
2.8023352793995,32.30410107384685,1064.6736559871276,31.244665632101295,3.729198946294961,0.0
2.852376980817348,30.67522242135465,1064.2608197183988,31.318375089428123,3.791338242911153,0.0
2.9024186822351963,29.07279388862382,1063.743914227283,31.41740458422803,3.8533821031576156,0.0
2.9524603836530443,27.501803302507362,1063.1247729272804,31.54034498664281,3.9153461234425393,0.0
3.0025020850708923,25.967129573808673,1062.4053917778715,31.68571345256344,3.9772451919559884,0.0
3.052543786488741,24.473542697281662,1061.5879292845173,31.851953423630096,4.039093488669896,0.0
3.102585487906589,23.025703751630715,1060.67470649866,32.037434627232145,4.100904485338066,0.0
3.1526271893244373,21.628164899510665,1059.668207017722,32.240453076508146,4.1626909454961725,0.0
3.2026688907422853,20.285301300847493,1058.5709466231042,32.45928528659591,4.224466977982267,0.0
3.2527105921601334,19.000647411686916,1057.383273524533,32.693162083815984,4.286271556390261,0.0
3.302752293577982,17.779936254411346,1056.1080692908906,32.94047260504302,4.348080527518904,0.0
3.35279399499583,16.629326547534127,1054.7495980997357,33.199210599207206,4.409850947867092,0.0
3.4028356964136783,15.554588885575232,1053.3123002477275,33.467463469519934,4.4715442441140585,0.0
3.4528773978315264,14.561105739061365,1051.8007921506266,33.74341227347381,4.5331262131193615,0.0
3.5029190992493744,13.653871454525868,1050.2198663432946,34.02533172284263,4.5945670219228925,0.0
3.552960800667223,12.837492254508772,1048.5744914796942,34.31159018368138,4.655841207744873,0.0
3.603002502085071,12.116186237556807,1046.8698123328884,34.60064967632627,4.716927677985853,0.0
3.6530442035029194,11.493783378223348,1045.1111497950421,34.8910658753947,4.777809710226714,0.0
3.7030859049207674,10.973725527068478,1043.3040008774205,35.18148810978527,4.838474952228668,0.0
3.7531276063386154,10.559066410658941,1041.4540387103905,35.47065936267778,4.898915421933256,0.0
3.803169307756464,10.252471631568163,1039.567112543419,35.75741627153323,4.959127507462352,0.0
3.853211009174312,10.05621866837625,1037.649247745075,36.04068912809383,5.019111967118155,0.0
3.9032527105921604,9.972196875669985,1035.7066458030274,36.31950187838299,5.0788739293832,0.0
3.9532944120100084,10.001907484042835,1033.745684324047,36.5929721227053,5.1384228929203495,0.0
4.0033361134278564,10.14646360009494,1031.7729170340053,36.860311115646574,5.197772726572795,0.0
4.053377814845705,10.40659020643312,1029.7950737778747,37.120823766073826,5.256941669364063,0.0
4.103419516263553,10.782725207473263,1027.8191493435515,37.37385879055181,5.315944802721729,0.0
4.153461217681401,11.27666461792337,1025.8542716714155,37.61763475378044,5.374652005427364,0.0
4.2035029190992494,11.888083532254573,1023.9090627982625,37.85043219042792,5.433015425272364,0.0
4.253544620517098,12.615358304697782,1021.9912560588314,38.07093390424806,5.491043943612588,0.0
4.3035863219349455,13.456434094470973,1020.1082948740066,38.27792019205924,5.548744790311402,0.0
4.353628023352794,14.408824865779225,1018.2673327508193,38.47026884374437,5.6061235437396775,0.0
4.4036697247706424,15.469613387814647,1016.4752332824468,38.646955142250874,5.66318413077579,0.0
4.453711426188491,16.635451234756424,1014.7385701482126,38.807051863590715,5.7199288268056225,0.0
4.5037531276063385,17.902558785770786,1013.0636271135866,38.949729276840365,5.776358255722561,0.0
4.553794829024187,19.2667252250111,1011.4563980301848,39.074255144140864,5.8324713899275,0.0
4.6038365304420354,20.72330854161773,1009.9225868357696,39.17999472069775,5.888265550328839,0.0
4.653878231859883,22.2672355297181,1008.4676075542495,39.26641075478109,5.94373640634248,0.0
4.7039199332777315,23.893001788426787,1007.0965842956796,39.333063487725504,5.998877975891835,0.0
4.75396163469558,25.59467172184535,1005.8143512562607,39.379610653930115,6.053682625407818,0.0
4.8040033361134284,27.365878539062457,1004.6254527183404,39.40580748085859,6.108141069828851,0.0
4.854045037531276,29.199824254153768,1003.5341430504124,39.411506689039115,6.162242372600859,0.0
4.9040867389491245,31.089279686182156,1002.5443867071164,39.396658492064425,6.215973945677275,0.0
4.954128440366973,33.02658445919743,1001.6598582292386,39.36131059659176,6.269321549519036,0.0
5.004170141784821,35.00448608810695,1000.8832799869558,39.305597044415386,6.322267821026841,0.0
5.054211843202669,37.01661908907959,1000.2152082439328,39.229221596861905,6.374827065951642,0.0
5.1042535446205175,39.05604461947504,999.6557880026656,39.1317133448207,6.42703283558311,0.0
5.154295246038365,41.11593103785038,999.2048704801462,39.01276296759852,6.478913241720028,0.0
5.204336947456214,43.18955980874105,998.862010440408,38.87222375395552,6.530490870867917,0.0
5.254378648874062,45.27032550266062,998.6264661945271,38.7101116021053,6.581782784239025,0.0
5.3044203502919105,47.35173579610097,998.4971996006211,38.526605019714935,6.632800517752337,0.0
5.354462051709758,49.42741147153216,998.4728760638499,38.32204512390492,6.683550082033568,0.0
5.404503753127607,51.491086417402656,998.551864536415,38.096935641249196,6.734031962415172,0.0
5.454545454545455,53.53660762813905,998.7322375175604,37.85194290777515,6.784241118936334,0.0
5.504587155963303,55.557935204146176,999.0117710535717,37.587895868963614,6.83416698634297,0.0
5.554628857381151,57.54914235180723,999.3879447377767,37.305786079748856,6.8837934740877325,0.0
5.604670558799,59.50441538348357,999.857941710545,37.00676770451859,6.933098966330006,0.0
5.654712260216847,61.4180537175148,1000.4186486592882,36.69215751711399,6.982056321935909,0.0
5.704753961634696,63.28448203774285,1001.0666506740148,36.36341920124062,7.030633431996431,0.0
5.754795663052544,65.09961112197459,1001.797653963456,36.02065516621765,7.078849763373151,0.0
5.804837364470393,66.86038512151588,1002.606813516843,35.66375960980109,7.126741754835641,0.0
5.85487906588824,68.56360774793686,1003.489442042617,35.29334952296096,7.1743220278094,0.0
5.904920767306089,70.20634686902379,1004.4408636365829,34.91009526321979,7.221601312728302,0.0
5.954962468723937,71.78593450877871,1005.456413781909,34.51472055465263,7.268588449034581,0.0
6.005004170141785,73.29996684741961,1006.5314393491266,34.10800248788706,7.315290385178844,0.0
6.055045871559633,74.74630422138047,1007.661298596131,33.69077152010315,7.361712178620063,0.0
6.105087572977482,76.12307112331115,1008.8413611681807,33.26391147503351,7.4078569958255835,0.0
6.155129274395329,77.42865620207742,1010.0670080978974,32.828359542963256,7.453726112271111,0.0
6.205170975813178,78.66171226276104,1011.3336318052665,32.385106280730014,7.499318912440727,0.0
6.255212677231026,79.82115626665966,1012.6366360976365,31.935195611723934,7.544632889826875,0.0
6.305254378648875,80.90616933128686,1013.9714361697196,31.479724825887683,7.589663646930371,0.0
6.355296080066722,81.91619673037212,1015.3334586035911,31.01984457971645,7.634404895260396,0.0
6.405337781484571,82.85094789386093,1016.7181413686901,30.556758896257918,7.6788484553345,0.0
6.455379482902419,83.71038357341469,1018.1209329735466,30.091700819728906,7.722985443531703,0.0
6.505421184320267,84.49480297071293,1019.5374708435928,29.62544355941297,7.766827419638742,0.0
6.555462885738115,85.20528666113069,1020.9638732774389,29.15855972939026,7.810390653602921,0.0
6.605504587155964,85.84309187142622,1022.3964492819134,28.691689550358845,7.853688057321757,0.0
6.655546288573812,86.40953348115207,1023.8316524596235,28.225494285417348,7.896732131232065,0.0
6.70558798999166,86.90598402265502,1025.2660810089553,27.760656240064975,7.93953496430997,0.0
6.755629691409508,87.33387368107613,1026.696477724074,27.29787876220145,7.982108234070895,0.0
6.805671392827357,87.69469029435069,1028.1197299949235,26.837886242127098,8.024463206569573,0.0
6.855713094245204,87.9899793532083,1029.5328698072262,26.381424112542796,8.066610736400035,0.0
6.905754795663053,88.22134400117278,1030.9330737424843,25.929258848549964,8.10856126669562,0.0
6.955796497080901,88.39044503456223,1032.3176629779778,25.482177967650614,8.150324829128968,0.0
7.005838198498749,88.499000902489,1033.684103286766,25.0409900297473,8.191911043912025,0.0
7.055879899916597,88.54878770685968,1035.030005037687,24.606524637143135,8.23332911979604,0.0
7.105921601334446,88.5416392023752,1036.3531231953584,24.1796324345418,8.274587854071562,0.0
7.155963302752294,88.47944679653064,1037.6513573201755,23.76118510904755,8.315695632568453,0.0
7.206005004170142,88.36415954961542,1038.9227515683133,23.35207539016519,8.356660429655868,0.0
7.25604670558799,88.19778417471319,1040.1654946917251,22.953217049800067,8.397489808242277,0.0
7.306088407005839,87.98238503770189,1041.3779200381439,22.565544902258125,8.438190919775442,0.0
7.356130108423686,87.72008415725367,1042.5585055510805,22.190014804245855,8.478770504242437,0.0
7.406171809841535,87.41306292056883,1043.705867902675,21.827586096137534,8.519235046509667,0.0
7.456213511259383,87.06353032331756,1044.8185912347853,21.478307398038417,8.5596007859666,0.0
7.506255212677231,86.67333679943859,1045.8958277338734,21.142452074317323,8.599887173315528,0.0
7.556296914095079,86.24418976742963,1046.9369876147807,20.820732678880983,8.640110336503142,0.0
7.606338615512928,85.77775794394502,1047.9415038135473,20.51382757815488,8.680286295116488,0.0
7.656380316930776,85.27567134379562,1048.908831987413,20.22238095108323,8.72043096038297,0.0
7.706422018348624,84.73952127994886,1049.8384505148165,19.94700278912898,8.760560135170344,0.0
7.756463719766472,84.17086036352867,1050.729860495396,19.688268896273797,8.800689513986727,0.0
7.806505421184321,83.57120250381558,1051.5825857499888,19.446720889018103,8.840834682980589,0.0
7.856547122602168,82.94202290824666,1052.3961728206311,19.222866196381045,8.88101111994075,0.0
7.906588824020017,82.2847580824155,1053.1701909705596,19.017178059900502,8.921234194296398,0.0
7.956630525437865,81.60080583007225,1053.9042321842085,18.830095533633088,8.961519167117064,0.0
8.006672226855713,80.89152525312366,1054.5979111672125,18.662023484154158,9.001881191112645,0.0
8.056713928273561,80.15823675163294,1055.250865346405,18.51333259055779,9.042335310633385,0.0
8.10675562969141,79.40222202381993,1055.8627548698187,18.384359344456808,9.082896461669892,0.0
8.156797331109258,78.62472406606098,1056.433262606686,18.275406049982756,9.123579471853123,0.0
8.206839032527107,77.82694717288899,1056.9620941474375,18.186740823785925,9.164399060454393,0.0
8.256880733944955,77.01005693699342,1057.4489778037043,18.11859759503533,9.205369838385373,0.0
8.306922435362802,76.17518024922032,1057.8936646083162,18.07117610541873,9.24650630819809,0.0
8.35696413678065,75.32340529857215,1058.2959283153016,18.04464190914261,9.287822864084927,0.0
8.407005838198499,74.45578157220808,1058.6555653998892,18.039126372932188,9.329333791878621,0.0
8.457047539616347,73.57331985544376,1058.9723950585062,18.054726676031425,9.371053269052267,0.0
8.507089241034196,72.67699223175136,1059.2462592087793,18.09150581020301,9.412995364719311,0.0
8.557130942452044,71.76773208275966,1059.4770224895349,18.149492579728367,9.455174039633564,0.0
8.607172643869891,70.846434088254,1059.6645722607975,18.22868160140765,9.497603146189178,0.0
8.65721434528774,69.91395422617616,1059.8088186037921,18.329033304559754,9.540296428420678,0.0
8.707256046705588,68.97110977262457,1059.9096943209422,18.45047393102231,9.58326752200293,0.0
8.757297748123436,68.01869057907389,1059.967177875232,18.592899223600952,9.626529800946384,0.0
8.807339449541285,67.05798346605656,1059.982117434451,18.75621117733231,9.670090114849954,0.0
8.857381150959133,66.08991447229438,1059.9539042479303,18.939763094517765,9.713962360671585,0.0
8.907422852376982,65.11517130423975,1059.881159005866,19.142712209572426,9.758164021289259,0.0
8.957464553794829,64.13457099514882,1059.7625931926214,19.364210460405634,9.802710737065265,0.0
9.007506255212677,63.149059905081344,1059.597009086725,19.603404488421003,9.847616305846202,0.0
9.057547956630525,62.159713720900974,1059.3832997608713,19.859435638516352,9.89289268296298,0.0
9.107589658048374,61.16773745627502,1059.1204490819207,20.131439959083753,9.93854998123081,0.0
9.157631359466222,60.174465451674536,1058.8075317108996,20.418548202009514,9.98459647094922,0.0
9.207673060884071,59.18136137437434,1058.4437131030002,20.71988582267419,10.031038579902042,0.0
9.25771476230192,58.19001821845295,1058.0282495075805,21.034572979952564,10.077880893357419,0.0
9.307756463719766,57.20215830479269,1057.5604879681648,21.361724536213654,10.125126154067795,0.0
9.357798165137615,56.21963328107948,1057.0398663224423,21.700450057320747,10.172775262269937,0.0
9.407839866555463,55.244424121803114,1056.4659132022693,22.04985381263134,10.220827275684908,0.0
9.457881567973311,54.27864112825708,1055.8382480336675,22.40903477499718,10.269279409518086,0.0
9.50792326939116,53.32452392853858,1055.1565810368238,22.77708662076425,10.318127036459153,0.0
9.557964970809008,52.384441477548584,1054.4207132260922,23.153097729772774,10.367363686682104,0.0
9.608006672226857,51.460892056991796,1053.6305364099915,23.536151185357213,10.416981047845239,0.0
9.658048373644704,50.556503275376656,1052.7860331912073,23.925324774346258,10.466968965091167,0.0
9.708090075062552,49.674032068015286,1051.8872769665902,24.31969098706288,10.517315441046811,0.0
9.7581317764804,48.816364697023616,1050.9344319271577,24.71831701732424,10.568006635823396,0.0
9.808173477898249,47.98651675132129,1049.927753058092,25.120264762441764,10.619026867016458,0.0
9.858215179316097,47.18763314663169,1048.8675861387424,25.52459082322111,10.670358609705842,0.0
9.908256880733946,46.422988125481936,1047.754367742623,25.930346503962173,10.721982496455698,0.0
9.958298582151793,45.69598525720289,1046.5886252374146,26.336577812459083,10.773877317314492,0.0
10.008340283569641,45.01015743792912,1045.3709767849634,26.74232546000024,10.826020019814992,0.0
10.05838198498749,44.36916689059893,1044.1021313412816,27.14662486136825,10.878385708974278,0.0
10.108423686405338,43.77680516495444,1042.7828886565476,27.548506134839965,10.930947647293735,0.0
10.158465387823187,43.23675421831794,1041.4138323729069,27.94712962653418,10.983685038527113,0.0
10.208507089241035,42.75139976740763,1039.9943308583793,28.34280454068642,11.036622518309114,0.0
10.258548790658883,42.3253611347027,1038.5278230704957,28.73513424503453,11.089710632936345,0.0
10.30859049207673,41.96342370548679,1037.0186054040048,29.12347470272465,11.142886593540991,0.0
10.358632193494579,41.66996804223183,1035.4710262476158,29.507190301799426,11.196092422676346,0.0
